[Name]
Export Surface 1

[Parameters]
Ncompt = 1
Nnodes = 23585
Rotation Axis From = 0.00000000 [m], 0.00000000 [m], 0.00000000 [m]
Rotation Axis To   = 0.00000000 [m], 0.00000000 [m], 1.00000000 [m]
Rotating Speed     = 1679.99817 [s^-1 rad]
Frequency          = 534.760010 [Hz]
Engine Order       = 2

[Spatial Fields]
x, y, z

[Data]
x [ m ], y [ m ], z [ m ], Real Pressure [ kg m^-1 s^-2 ], Imaginary Pressure [ kg m^-1 s^-2 ]
 2.31812200E-04,  9.56785830E-02, -5.05504780E-04,  9.61462250E+01, -7.21397340E+02
 2.31709100E-04,  9.56853400E-02, -5.04941620E-04,  8.71866300E+01, -7.15706910E+02
 2.31545240E-04,  9.56960540E-02, -5.04048020E-04,  6.63430330E+01, -7.19899480E+02
 2.31285260E-04,  9.57130490E-02, -5.02631130E-04,  1.82093810E+00, -7.03996580E+02
 2.30872600E-04,  9.57399980E-02, -5.00384490E-04,  1.17254790E+01, -6.80393190E+02
 2.30217220E-04,  9.57827270E-02, -4.96822530E-04,  2.18100310E+02, -5.25517520E+02
 2.29175520E-04,  9.58504750E-02, -4.91175450E-04,  7.36799930E+01, -5.04266480E+02
 2.27517510E-04,  9.59579200E-02, -4.82224020E-04, -2.02414860E+02, -4.17259550E+02
 2.24875020E-04,  9.61282850E-02, -4.68037350E-04, -5.43555790E+02, -2.83339750E+02
 2.20646460E-04,  9.63984280E-02, -4.45559590E-04, -6.05329220E+02, -7.11077190E+01
 2.13789360E-04,  9.68267840E-02, -4.09841360E-04, -4.90448240E+02,  1.55334340E+02
 2.01312740E-04,  9.75057710E-02, -3.50524210E-04, -4.50427000E+02,  3.58983460E+02
 1.79654150E-04,  9.85821340E-02, -2.53854170E-04, -4.69574710E+02,  3.66634610E+02
 1.30102900E-04,  1.00687460E-01, -5.31660410E-05, -4.52154970E+02,  2.98237150E+02
 7.22860860E-05,  1.02791090E-01,  1.62503160E-04, -4.26414310E+02,  2.21963460E+02
 8.09358790E-06,  1.04893070E-01,  3.92053920E-04, -3.62223820E+02,  1.58532700E+02
-5.85848540E-05,  1.06993960E-01,  6.30789670E-04, -3.03205570E+02,  8.73903730E+01
-1.25857240E-04,  1.09102880E-01,  8.85205870E-04, -2.62842160E+02,  5.82965010E+01
-1.93187440E-04,  1.11210550E-01,  1.15575520E-03, -2.57392030E+02,  9.13053210E+01
-2.60359750E-04,  1.13316760E-01,  1.43759160E-03, -2.57929930E+02,  1.22476910E+02
-3.26450680E-04,  1.15421350E-01,  1.73142650E-03, -2.62561740E+02,  1.61530560E+02
-3.89597500E-04,  1.17524480E-01,  2.03620290E-03, -2.78691350E+02,  2.08317860E+02
-4.48362260E-04,  1.19625290E-01,  2.35158650E-03, -3.09194760E+02,  2.49893920E+02
-5.03305460E-04,  1.21724220E-01,  2.67453860E-03, -2.90147740E+02,  2.42336210E+02
-5.54974660E-04,  1.23821920E-01,  3.00576510E-03, -2.45227430E+02,  2.12210540E+02
-6.05002100E-04,  1.25918460E-01,  3.34457910E-03, -2.02390050E+02,  1.74044660E+02
-6.54940200E-04,  1.28014460E-01,  3.68675220E-03, -1.39167530E+02,  1.03277440E+02
-7.08205160E-04,  1.30108640E-01,  4.03195850E-03, -1.09662890E+02,  2.24621630E+00
-7.69545850E-04,  1.32188010E-01,  4.38055490E-03, -1.22148380E+02, -9.75713270E+01
-8.40648600E-04,  1.34265990E-01,  4.73548150E-03, -1.34463840E+02, -1.34954030E+02
-9.23435200E-04,  1.36343780E-01,  5.08895000E-03, -1.47948100E+02, -1.85591200E+02
-1.02163930E-03,  1.38421330E-01,  5.43988540E-03, -1.63169820E+02, -2.47079350E+02
-1.13744380E-03,  1.40498730E-01,  5.78635610E-03, -1.73421450E+02, -3.06791470E+02
-1.27359440E-03,  1.42557980E-01,  6.12703060E-03, -1.82900070E+02, -3.17118350E+02
-1.42981550E-03,  1.44606080E-01,  6.45907220E-03, -1.89507160E+02, -2.86152100E+02
-1.60480790E-03,  1.46654580E-01,  6.77912120E-03, -2.09197450E+02, -2.93860810E+02
-1.79383090E-03,  1.48703170E-01,  7.09046330E-03, -2.40332460E+02, -3.10719150E+02
-1.99211640E-03,  1.50751650E-01,  7.39682650E-03, -2.80794980E+02, -3.18711150E+02
-2.19419440E-03,  1.52798220E-01,  7.69985930E-03, -3.23246670E+02, -3.20848180E+02
-2.39342470E-03,  1.54821040E-01,  7.99899920E-03, -3.55047150E+02, -3.11078740E+02
-2.58787910E-03,  1.56843950E-01,  8.30065180E-03, -3.90036710E+02, -2.86575320E+02
-2.77096920E-03,  1.58867420E-01,  8.60557890E-03, -4.15137880E+02, -2.47968730E+02
-2.93921680E-03,  1.60891530E-01,  8.91476400E-03, -4.56676790E+02, -2.17398510E+02
-3.09063980E-03,  1.62915990E-01,  9.23030360E-03, -5.33883300E+02, -2.25402020E+02
-3.22102030E-03,  1.64933670E-01,  9.55148880E-03, -5.74305600E+02, -2.08258450E+02
-3.32862070E-03,  1.66943030E-01,  9.87999510E-03, -5.95782780E+02, -1.40503750E+02
-3.41156590E-03,  1.68951960E-01,  1.02181370E-02, -6.18394900E+02, -6.28032910E+01
-3.46401780E-03,  1.70960660E-01,  1.05636430E-02, -6.29329590E+02,  1.15890170E+01
-3.48801930E-03,  1.72969030E-01,  1.09142060E-02, -6.46606750E+02,  5.72818870E+01
-3.48818630E-03,  1.74977210E-01,  1.12667210E-02, -7.01373170E+02,  1.04797730E+02
-3.47053100E-03,  1.76965490E-01,  1.16158080E-02, -7.64427250E+02,  1.74315370E+02
-3.43832720E-03,  1.78949670E-01,  1.19602320E-02, -8.45652470E+02,  2.38460240E+02
-3.39601750E-03,  1.80934730E-01,  1.22985120E-02, -8.74849850E+02,  3.08209930E+02
-3.34683360E-03,  1.82921080E-01,  1.26280690E-02, -8.97190610E+02,  3.43712400E+02
-3.29353640E-03,  1.84908640E-01,  1.29496980E-02, -8.83579470E+02,  3.93730290E+02
-3.23408190E-03,  1.86894890E-01,  1.32624060E-02, -8.30128420E+02,  4.28225800E+02
-3.17153080E-03,  1.88856420E-01,  1.35656100E-02, -7.68388920E+02,  4.64507480E+02
-3.10521970E-03,  1.90818520E-01,  1.38643510E-02, -7.01739010E+02,  4.82987550E+02
-3.03516580E-03,  1.92781020E-01,  1.41595610E-02, -6.50716190E+02,  4.86346920E+02
-2.96124230E-03,  1.94743770E-01,  1.44520970E-02, -6.05296080E+02,  4.94660000E+02
-2.88271790E-03,  1.96706560E-01,  1.47431450E-02, -5.47518070E+02,  4.76582340E+02
-2.79827630E-03,  1.98665620E-01,  1.50339400E-02, -5.25843380E+02,  4.22181820E+02
-2.70699080E-03,  2.00615260E-01,  1.53257200E-02, -5.07197570E+02,  3.10014890E+02
-2.60668550E-03,  2.02563880E-01,  1.56214840E-02, -5.33115970E+02,  2.24003800E+02
-2.49572380E-03,  2.04511030E-01,  1.59230270E-02, -4.98684080E+02,  1.58067990E+02
-2.37200760E-03,  2.06456270E-01,  1.62318160E-02, -4.84436490E+02,  6.53897550E+01
-2.23566640E-03,  2.08399280E-01,  1.65493190E-02, -4.76144740E+02,  3.34975890E+01
-2.08657120E-03,  2.10337880E-01,  1.68734270E-02, -4.59416020E+02,  2.53160210E+01
-1.92745800E-03,  2.12271750E-01,  1.72030200E-02, -4.13255280E+02,  1.11524730E+01
-1.75685920E-03,  2.14204100E-01,  1.75359400E-02, -4.12607760E+02,  6.00082440E+01
-1.57534770E-03,  2.16135170E-01,  1.78704210E-02, -4.11220400E+02,  1.16193840E+02
-1.38347420E-03,  2.18065280E-01,  1.82047520E-02, -3.86795290E+02,  6.70915910E+01
-1.18199980E-03,  2.19994680E-01,  1.85374450E-02, -4.19776430E+02,  1.02600520E+02
-9.73878540E-04,  2.21914380E-01,  1.88660120E-02, -4.21523070E+02,  1.50633220E+02
-7.61505100E-04,  2.23827470E-01,  1.91905140E-02, -3.72017700E+02,  1.68443100E+02
-5.46714870E-04,  2.25740850E-01,  1.95116850E-02, -3.55649660E+02,  1.38769960E+02
-3.32031110E-04,  2.27654860E-01,  1.98291280E-02, -2.70039890E+02,  1.03125700E+02
-1.20099100E-04,  2.29569870E-01,  2.01424620E-02, -1.18103500E+02,  4.05979540E+01
 8.67663770E-05,  2.31486140E-01,  2.04513450E-02,  1.75692140E+01,  1.49668340E+01
 2.84480750E-04,  2.33388130E-01,  2.07535070E-02,  7.48380740E+01,  2.98315830E+01
 4.73537950E-04,  2.35284180E-01,  2.10504640E-02,  1.46779910E+02,  8.47788090E+01
 6.60765680E-04,  2.37181110E-01,  2.13429610E-02,  3.01870940E+02,  1.60213810E+02
 8.39483690E-04,  2.39079210E-01,  2.16332490E-02,  3.94775270E+02,  2.57090820E+02
 1.00782420E-03,  2.40978430E-01,  2.19222660E-02,  3.47129730E+02,  3.39592930E+02
 1.16318070E-03,  2.42878870E-01,  2.22106610E-02,  2.84710270E+02,  4.64936680E+02
 1.30451720E-03,  2.44770300E-01,  2.24940500E-02,  1.92720570E+02,  5.17835630E+02
 1.42970770E-03,  2.46658520E-01,  2.27759850E-02,  9.71669010E+00,  5.05221800E+02
 1.53972940E-03,  2.48547610E-01,  2.30584050E-02, -3.13913390E+02,  3.76395900E+02
 1.63497460E-03,  2.50437320E-01,  2.33421610E-02, -7.72350890E+02,  1.06474670E+02
 1.71337200E-03,  2.52327530E-01,  2.36275420E-02, -1.38879600E+03, -5.47252260E+02
 1.74597520E-03,  2.53258110E-01,  2.37688960E-02, -1.76768600E+03, -9.29374270E+02
 1.76480610E-03,  2.53843130E-01,  2.38582310E-02, -2.11558840E+03, -1.35659850E+03
 1.77521240E-03,  2.54210980E-01,  2.39143300E-02, -2.35940750E+03, -1.48960460E+03
 1.78170220E-03,  2.54442210E-01,  2.39497480E-02, -2.45870390E+03, -1.56040030E+03
 1.78576050E-03,  2.54587590E-01,  2.39720770E-02, -2.49278780E+03, -1.55218540E+03
 1.78830280E-03,  2.54678960E-01,  2.39861400E-02, -1.94352660E+03, -1.28230410E+03
 1.78989720E-03,  2.54736420E-01,  2.39949900E-02, -1.27471260E+03, -8.21045720E+02
 1.79089800E-03,  2.54772510E-01,  2.40005570E-02, -3.31614070E+02, -2.44108610E+02
 1.79152690E-03,  2.54795220E-01,  2.40040590E-02,  9.97812620E+02,  7.00455020E+02
 1.79192190E-03,  2.54809500E-01,  2.40062610E-02,  1.65787880E+03,  9.60556580E+02
 1.79217010E-03,  2.54818470E-01,  2.40076450E-02,  1.07835080E+03,  2.85983800E+02
 1.79232460E-03,  2.54824130E-01,  2.40085160E-02,  1.36047750E+03,  5.10380740E+02
 1.89045950E-04,  9.57318470E-02, -2.69626120E-04, -8.76721440E+02,  1.97930920E+02
 1.88946800E-04,  9.57386050E-02, -2.69048290E-04, -8.82506710E+02,  2.05086810E+02
 1.88789340E-04,  9.57493340E-02, -2.68131410E-04, -8.95713620E+02,  2.22560100E+02
 1.88538940E-04,  9.57663280E-02, -2.66677380E-04, -9.29833310E+02,  2.38748030E+02
 1.88140020E-04,  9.57932920E-02, -2.64371480E-04, -9.93728700E+02,  2.39484540E+02
 1.87502910E-04,  9.58360430E-02, -2.60714470E-04, -8.95049320E+02,  3.56775540E+02
 1.86481190E-04,  9.59038360E-02, -2.54914280E-04, -8.29387940E+02,  5.92421570E+02
 1.84832340E-04,  9.60113260E-02, -2.45713690E-04, -1.03966500E+03,  7.15601140E+02
 1.82146060E-04,  9.61817800E-02, -2.31116360E-04, -1.35558340E+03,  8.71889340E+02
 1.77707970E-04,  9.64520570E-02, -2.07949560E-04, -1.59947290E+03,  1.09058750E+03
 1.70240790E-04,  9.68806150E-02, -1.71065050E-04, -1.64894250E+03,  1.31297180E+03
 1.57577330E-04,  9.75599440E-02, -1.10167340E-04, -1.66790580E+03,  1.53895460E+03
 1.35174200E-04,  9.86368280E-02, -1.08495660E-05, -1.64054080E+03,  1.61231070E+03
 8.40348730E-05,  1.00743120E-01,  1.95128760E-04, -1.63137720E+03,  1.61606750E+03
 2.45507440E-05,  1.02847690E-01,  4.15994200E-04, -1.59165490E+03,  1.58825900E+03
-4.18469030E-05,  1.04950630E-01,  6.49972640E-04, -1.54544530E+03,  1.56148160E+03
-1.14322250E-04,  1.07052830E-01,  8.88795420E-04, -1.48118900E+03,  1.51719580E+03
-1.82311810E-04,  1.09161600E-01,  1.14426140E-03, -1.43975940E+03,  1.50212280E+03
-2.44071500E-04,  1.11269010E-01,  1.41689840E-03, -1.42205430E+03,  1.52713540E+03
-3.06244820E-04,  1.13374930E-01,  1.70073900E-03, -1.39574460E+03,  1.55436540E+03
-3.66957070E-04,  1.15479180E-01,  1.99693050E-03, -1.36658920E+03,  1.58842130E+03
-4.24765400E-04,  1.17582020E-01,  2.30354050E-03, -1.32647910E+03,  1.62477200E+03
-4.77784690E-04,  1.19684120E-01,  2.62145350E-03, -1.28462430E+03,  1.65293410E+03
-5.32701260E-04,  1.21785860E-01,  2.94618290E-03, -1.21767570E+03,  1.66399230E+03
-5.86992650E-04,  1.23886360E-01,  3.27894440E-03, -1.13503890E+03,  1.66165090E+03
-6.39940900E-04,  1.25985710E-01,  3.61912020E-03, -1.06371580E+03,  1.65647750E+03
-6.92772450E-04,  1.28082350E-01,  3.97546920E-03, -9.89720640E+02,  1.67974730E+03
-7.48475840E-04,  1.30174990E-01,  4.34648900E-03, -9.16151370E+02,  1.72298330E+03
-8.12061010E-04,  1.32254230E-01,  4.72058870E-03, -8.50704830E+02,  1.78299220E+03
-8.76510570E-04,  1.34332330E-01,  5.10078580E-03, -7.61281490E+02,  1.79676980E+03
-9.60534670E-04,  1.36412960E-01,  5.46242110E-03, -6.84369750E+02,  1.85255260E+03
-1.06499130E-03,  1.38494450E-01,  5.81416120E-03, -5.67664180E+02,  1.90533040E+03
-1.18756550E-03,  1.40575650E-01,  6.16168370E-03, -4.58607670E+02,  1.95286830E+03
-1.32664040E-03,  1.42634390E-01,  6.50089140E-03, -3.26194400E+02,  2.01757930E+03
-1.48293730E-03,  1.44681040E-01,  6.83099360E-03, -1.97633450E+02,  2.07610160E+03
-1.66354470E-03,  1.46727760E-01,  7.14801020E-03, -2.62426760E+01,  2.16912990E+03
-1.85839330E-03,  1.48774520E-01,  7.45625140E-03,  1.66550110E+02,  2.25921610E+03
-2.06133820E-03,  1.50821130E-01,  7.76012890E-03,  3.80102450E+02,  2.35793410E+03
-2.26814000E-03,  1.52865070E-01,  8.06043110E-03,  6.03596980E+02,  2.43003300E+03
-2.47223190E-03,  1.54886070E-01,  8.35715510E-03,  8.14331480E+02,  2.51269120E+03
-2.67159750E-03,  1.56907160E-01,  8.65638910E-03,  1.04000820E+03,  2.56242800E+03
-2.85612300E-03,  1.58929330E-01,  8.95791690E-03,  1.21629490E+03,  2.64831930E+03
-3.02714950E-03,  1.60952060E-01,  9.26360300E-03,  1.43070540E+03,  2.68492820E+03
-3.18162190E-03,  1.62975070E-01,  9.57603750E-03,  1.49554820E+03,  2.67127730E+03
-3.31528900E-03,  1.64990470E-01,  9.89420150E-03,  1.57754820E+03,  2.52177510E+03
-3.42423860E-03,  1.66997670E-01,  1.02202080E-02,  1.62797520E+03,  2.38334280E+03
-3.50535130E-03,  1.69004500E-01,  1.05563770E-02,  1.70629050E+03,  2.26895310E+03
-3.55953210E-03,  1.71011330E-01,  1.08980460E-02,  1.75661690E+03,  2.17815010E+03
-3.58661640E-03,  1.73017980E-01,  1.12439380E-02,  1.78876760E+03,  2.04803000E+03
-3.58985040E-03,  1.75024450E-01,  1.15919240E-02,  1.77838020E+03,  1.83846040E+03
-3.57336880E-03,  1.77010160E-01,  1.19384380E-02,  1.86466880E+03,  1.68488920E+03
-3.54258760E-03,  1.78992450E-01,  1.22802330E-02,  1.89184850E+03,  1.50838650E+03
-3.50164740E-03,  1.80975620E-01,  1.26158690E-02,  1.86499540E+03,  1.32849050E+03
-3.45373670E-03,  1.82960110E-01,  1.29425530E-02,  1.83884590E+03,  1.16701270E+03
-3.40084240E-03,  1.84945730E-01,  1.32613990E-02,  1.79908080E+03,  1.02146620E+03
-3.34477890E-03,  1.86929850E-01,  1.35693180E-02,  1.74355140E+03,  9.09026610E+02
-3.28557430E-03,  1.88889620E-01,  1.38678220E-02,  1.69447660E+03,  8.24781370E+02
-3.22260920E-03,  1.90849940E-01,  1.41618690E-02,  1.64291280E+03,  7.67123900E+02
-3.15590230E-03,  1.92810680E-01,  1.44523640E-02,  1.57766640E+03,  7.24655580E+02
-3.08530060E-03,  1.94771680E-01,  1.47400610E-02,  1.51752690E+03,  6.98243900E+02
-3.01006970E-03,  1.96732760E-01,  1.50261200E-02,  1.43790750E+03,  6.71607420E+02
-2.92898530E-03,  1.98690010E-01,  1.53116680E-02,  1.37084010E+03,  6.65705320E+02
-2.84048570E-03,  2.00638090E-01,  1.55995400E-02,  1.30474880E+03,  6.26108830E+02
-2.74285950E-03,  2.02585180E-01,  1.58911380E-02,  1.24359660E+03,  5.65946290E+02
-2.63457860E-03,  2.04530890E-01,  1.61880160E-02,  1.11222830E+03,  4.46731080E+02
-2.51407690E-03,  2.06474660E-01,  1.64928450E-02,  9.97946410E+02,  3.60273190E+02
-2.38021350E-03,  2.08416360E-01,  1.68051660E-02,  7.87951660E+02,  2.43691570E+02
-2.23378120E-03,  2.10353700E-01,  1.71250270E-02,  6.18622560E+02,  2.03449630E+02
-2.07535530E-03,  2.12286310E-01,  1.74515560E-02,  4.42792760E+02,  1.00945110E+02
-1.90550550E-03,  2.14217420E-01,  1.77811910E-02,  2.70795900E+02,  5.96286660E+01
-1.72477580E-03,  2.16147290E-01,  1.81123300E-02,  1.20929810E+02,  1.26480180E+02
-1.53370970E-03,  2.18076230E-01,  1.84431230E-02, -1.70414120E+01,  4.22876010E+01
-1.33302180E-03,  2.20004480E-01,  1.87721080E-02, -8.42496030E+01,  5.12068980E+01
-1.12582180E-03,  2.21922620E-01,  1.90967690E-02, -2.95966980E+02,  8.54671480E+01
-9.14507660E-04,  2.23834110E-01,  1.94173180E-02, -3.34899230E+02,  1.33127010E+02
-7.00869660E-04,  2.25745690E-01,  1.97357330E-02, -4.02905120E+02,  1.38904140E+02
-4.87542510E-04,  2.27657940E-01,  2.00503210E-02, -4.41371890E+02,  1.87485820E+02
-2.77049690E-04,  2.29571150E-01,  2.03609710E-02, -3.84543850E+02,  1.58203840E+02
-7.21018000E-05,  2.31485660E-01,  2.06672180E-02, -3.46898160E+02,  1.32052550E+02
 1.23537350E-04,  2.33386280E-01,  2.09658590E-02, -2.53900270E+02,  1.68810940E+02
 3.10203960E-04,  2.35281170E-01,  2.12597050E-02, -2.02354770E+02,  2.18519000E+01
 4.87764220E-04,  2.37177180E-01,  2.15519370E-02, -2.06177460E+02, -1.04045860E+02
 6.55201090E-04,  2.39074500E-01,  2.18417760E-02, -2.19011230E+02, -1.83208720E+02
 8.11578240E-04,  2.40973040E-01,  2.21296530E-02, -9.81689150E+01, -3.92168240E+02
 9.55962460E-04,  2.42872800E-01,  2.24158500E-02, -2.83713990E+01, -5.64396180E+02
 1.08809350E-03,  2.44763120E-01,  2.27000170E-02,  2.64703670E+01, -6.27951600E+02
 1.20642430E-03,  2.46650370E-01,  2.29812390E-02,  1.60937260E+02, -5.92493160E+02
 1.31004270E-03,  2.48539000E-01,  2.32588800E-02,  4.57422000E+02, -3.16316500E+02
 1.39848980E-03,  2.50428290E-01,  2.35374400E-02,  9.90173830E+02,  2.02021550E+02
 1.47101000E-03,  2.52317990E-01,  2.38177370E-02,  1.98233140E+03,  1.32276510E+03
 1.50062940E-03,  2.53248300E-01,  2.39564120E-02,  2.46250340E+03,  1.77006770E+03
 1.51720000E-03,  2.53833230E-01,  2.40438190E-02,  2.74956620E+03,  2.03212540E+03
 1.52678070E-03,  2.54200940E-01,  2.40990260E-02,  2.64597560E+03,  2.02357820E+03
 1.53246850E-03,  2.54432110E-01,  2.41337380E-02,  2.41478300E+03,  1.92203140E+03
 1.53591170E-03,  2.54577460E-01,  2.41555630E-02,  2.25720290E+03,  1.88991240E+03
 1.53802340E-03,  2.54668800E-01,  2.41692810E-02,  2.28019650E+03,  1.94262010E+03
 1.53933030E-03,  2.54726260E-01,  2.41779070E-02,  2.32069850E+03,  1.96911380E+03
 1.54014350E-03,  2.54762380E-01,  2.41833290E-02,  2.31828030E+03,  1.97574910E+03
 1.54065170E-03,  2.54785090E-01,  2.41867400E-02,  2.37545750E+03,  2.05274560E+03
 1.54096970E-03,  2.54799340E-01,  2.41888820E-02,  2.37745360E+03,  2.02833390E+03
 1.54116910E-03,  2.54808310E-01,  2.41902280E-02,  2.26872560E+03,  1.90714390E+03
 1.54129450E-03,  2.54813970E-01,  2.41910760E-02,  1.74433940E+03,  1.37230210E+03
 5.13706590E-03,  9.65291040E-02,  3.74224900E-03, -4.24413700E+02,  1.58081420E+02
 5.13745190E-03,  9.65359510E-02,  3.74322130E-03, -4.24021730E+02,  1.58005070E+02
 5.13806330E-03,  9.65468140E-02,  3.74476260E-03, -4.23006650E+02,  1.57802370E+02
 5.13903240E-03,  9.65640400E-02,  3.74720730E-03, -4.20957950E+02,  1.57768040E+02
 5.14056770E-03,  9.65913460E-02,  3.75108540E-03, -4.19235840E+02,  1.57948960E+02
 5.14299800E-03,  9.66346490E-02,  3.75723860E-03, -4.16896610E+02,  1.58243610E+02
 5.14684150E-03,  9.67033210E-02,  3.76700520E-03, -4.13447140E+02,  1.58176700E+02
 5.15291090E-03,  9.68122110E-02,  3.78251520E-03, -4.07761660E+02,  1.57497940E+02
 5.16247280E-03,  9.69848710E-02,  3.80716750E-03, -4.02102780E+02,  1.56417100E+02
 5.17747880E-03,  9.72586350E-02,  3.84640390E-03, -4.05922550E+02,  1.57024630E+02
 5.20089920E-03,  9.76927130E-02,  3.90899650E-03, -4.42808960E+02,  1.69864640E+02
 5.23741820E-03,  9.83808710E-02,  4.00949360E-03, -5.96311160E+02,  2.05925660E+02
 5.29338890E-03,  9.94717850E-02,  4.17141800E-03, -1.16720750E+03,  2.65810640E+02
 5.39705720E-03,  1.01605710E-01,  4.49748340E-03, -2.19384470E+03,  2.00909560E+02
 5.49418810E-03,  1.03738140E-01,  4.83510970E-03, -2.25270900E+03, -1.76045520E+02
 5.59152200E-03,  1.05867840E-01,  5.18896060E-03, -1.90459990E+03, -5.96252690E+02
 5.72054790E-03,  1.07988360E-01,  5.58864650E-03, -1.59986340E+03, -8.51269960E+02
 5.85193650E-03,  1.10120660E-01,  5.99690850E-03, -1.37454920E+03, -1.04831410E+03
 5.98662770E-03,  1.12251450E-01,  6.41191100E-03, -1.14277980E+03, -1.18250320E+03
 6.12233160E-03,  1.14380760E-01,  6.83412000E-03, -8.46162230E+02, -1.22029820E+03
 6.26115450E-03,  1.16508420E-01,  7.26353140E-03, -4.44941380E+02, -1.08316580E+03
 6.39341820E-03,  1.18637340E-01,  7.68869650E-03, -8.18672030E+01, -7.13783690E+02
 6.52353650E-03,  1.20763580E-01,  8.11169670E-03,  1.57102520E+02, -9.74357450E+01
 6.65454520E-03,  1.22882250E-01,  8.56525820E-03,  2.86058720E+02,  6.86532470E+02
 6.78994970E-03,  1.24997680E-01,  9.03263870E-03,  3.60495120E+02,  1.57010030E+03
 6.92575840E-03,  1.27112480E-01,  9.50272290E-03,  3.93286620E+02,  2.48661450E+03
 7.06144560E-03,  1.29226340E-01,  9.97702500E-03,  3.88689580E+02,  3.22291820E+03
 7.19218380E-03,  1.31326750E-01,  1.04508510E-02,  3.65350710E+02,  3.61016040E+03
